Time Vibration Velocity Vibration Velocity
s mm/s mm/s
 Sleeper center (Location: V2) Ballast center (Location: V4)
0 -0.591108365258868 -0.33944399760316
7.81250000002842E-4 -0.587229475997499 -0.336864198678094
0.00156250000000568 -0.593697261920265 -0.342035245722828
0.00234375000000853 -0.606982442855729 -0.35261079951356
0.00312500000001137 -0.623842421366903 -0.366331787178887
0.00390625 -0.641921423545739 -0.381439517995261
0.00468750000000284 -0.659733904509738 -0.39668586646293
0.00546875000000568 -0.676669907725335 -0.411319790073287
0.00625000000000853 -0.692933074926638 -0.425171854963339
0.00703125000001137 -0.709037617502964 -0.43843157737126
0.0078125 -0.725616352586399 -0.451485395594537
0.00859375000000284 -0.743184016584155 -0.464791468790926
0.00937500000000568 -0.760739450896189 -0.478073665921436
0.0101562500000085 -0.775258653098616 -0.489619455603314
0.0109375000000114 -0.783478742010802 -0.497170946245004
0.01171875 -0.782864337704248 -0.498700006361896
0.0125000000000028 -0.772499703283693 -0.492968986416597
0.0132812500000057 -0.753900393490409 -0.480428079774054
0.0140625000000085 -0.730067705995126 -0.46309855013183
0.0148437500000114 -0.703426722126945 -0.44325946043168
0.015625 -0.6746958717921 -0.422181532950658
0.0164062500000028 -0.643926409981582 -0.400354775445056
0.0171875000000057 -0.611437892288169 -0.378121077225668
0.0179687500000085 -0.577668938464917 -0.355728524328356
0.0187500000000114 -0.543575651543148 -0.333401085349212
0.01953125 -0.513379242255979 -0.313169496403899
0.0203125000000028 -0.492980620565999 -0.299026990676182
0.0210937500000057 -0.483866239476594 -0.292629863317496
0.0218750000000085 -0.483413900886625 -0.292198496918394
0.0226562500000114 -0.488196579322124 -0.29514091510464
0.0234375 -0.495190085636103 -0.299325354397509
0.0242187500000028 -0.502243255178198 -0.30335208965322
0.0250000000000057 -0.508018023813478 -0.30645044284494
0.0257812500000085 -0.51214131081126 -0.308488470799452
0.0265625000000114 -0.514958832228085 -0.309815607117258
0.02734375 -0.517140283139828 -0.310929005652106
0.0281250000000028 -0.519622028715157 -0.312398977338824
0.0289062500000057 -0.522979413443572 -0.314652214945307
0.0296875000000085 -0.525905643115579 -0.317092915237698
0.0304687500000114 -0.525758583525291 -0.318091542309269
0.03125 -0.520300829521766 -0.316031480869886
0.0320312500000028 -0.508303323735613 -0.30967182160267
0.0328125000000057 -0.490575674017602 -0.298794885900189
0.0335937500000085 -0.470051069792948 -0.284759184154639
0.0343750000000114 -0.450069209104492 -0.269808490628397
0.03515625 -0.43221808868827 -0.255536082428253
0.0359375000000028 -0.41613118796068 -0.242183141061763
0.0367187500000057 -0.40085156761393 -0.229323957820402
0.0375000000000085 -0.385427006742356 -0.21643291242201
0.0382812500000114 -0.368759666971571 -0.202887844424536
0.0390625 -0.351237523921196 -0.188714868908866
0.0398437500000028 -0.337151807341942 -0.176638477329424
0.0406250000000057 -0.330477509376529 -0.170138894863463
0.0414062500000085 -0.330513339273162 -0.169370412879254
0.0421875000000114 -0.334427082152279 -0.172145506146516
0.04296875 -0.339579236634005 -0.176279328234659
0.0437500000000028 -0.34413586997302 -0.180279634056446
0.0445312500000057 -0.347125906793357 -0.183405497625772
0.0453125000000085 -0.348330047438252 -0.185496684903812
0.0460937500000114 -0.348315030958099 -0.186951191631005
0.046875 -0.347967245988369 -0.188395848826139
0.0476562500000028 -0.348208950599286 -0.190379682713109
0.0484375000000057 -0.349928315714372 -0.193317710036686
0.0492187500000085 -0.352922918956494 -0.197026040252437
0.0500000000000114 -0.354918225997286 -0.200004767987987
0.05078125 -0.353070588182818 -0.200211271032588
0.0515625000000028 -0.345188811798573 -0.196088361395689
0.0523437500000057 -0.33038072120052 -0.186936310422174
0.0531250000000085 -0.310098199235054 -0.173630154352254
0.0539062500000114 -0.287577635469633 -0.158541021886458
0.0546875 -0.265800671568735 -0.14420974776901
0.0554687500000028 -0.245779825436126 -0.131796284983173
0.0562500000000057 -0.227110280710928 -0.121009485526064
0.0570312500000085 -0.209120690855168 -0.110960289848413
0.0578125000000114 -0.191065867282529 -0.100585397342805
0.05859375 -0.172311483093125 -0.0887962739531122
0.0593750000000028 -0.155014762743426 -0.0761459628362134
0.0601562500000057 -0.144446896894772 -0.0661043973225545
0.0609375000000085 -0.14298058486858 -0.061303097026397
0.0617187500000114 -0.148560590324784 -0.0610142253023499
0.0625 -0.158093972302431 -0.0633624607352553
0.0632812500000028 -0.168925194462741 -0.0668722724756086
0.0640625000000057 -0.179308419802234 -0.0707359351055051
0.0648437500000085 -0.188303473671782 -0.0746470908617037
0.0656250000000114 -0.195815031208272 -0.0786834430575187
0.06640625 -0.202452906526101 -0.0832242564641287
0.0671875000000028 -0.209076700314569 -0.0886398459418067
0.0679687500000057 -0.216677734717132 -0.0952233397617217
0.0687500000000085 -0.226003315796921 -0.103157545112483
0.0695312500000114 -0.23603780849255 -0.111785671307434
0.0703125 -0.243868082038197 -0.119266595064987
0.0710937500000028 -0.246521429449978 -0.123599735562002
0.0718750000000057 -0.241799932333103 -0.123145250922956
0.0726562500000085 -0.22935248839666 -0.117108374192537
0.0734375000000114 -0.21130837662277 -0.106249008718973
0.07421875 -0.190970497752143 -0.09252665170257
0.0750000000000028 -0.170555124197154 -0.0777668478895268
0.0757812500000057 -0.150304105359423 -0.0626849797129321
0.0765625000000085 -0.129675267981203 -0.0473556858652564
0.0773437500000114 -0.108213493679353 -0.0318027557557097
0.078125 -0.0854709628037998 -0.0159247956354347
0.0789062500000028 -0.0619057449202317 2.85086334000688E-4
0.0796875000000057 -0.0416849650552059 0.0147041767785549
0.0804687500000085 -0.0300136645092059 0.0236538741640847
0.0812500000000114 -0.0274780081762612 0.0262330654050521
0.08203125 -0.0313906918013242 0.024463913224688
0.0828125000000028 -0.0387687719709176 0.0206416512480498
0.0835937500000057 -0.047243410371002 0.0163444111211518
0.0843750000000085 -0.0553655900199066 0.0123202489314164
0.0851562500000114 -0.0624905651645845 0.00875833976240176
0.0859375 -0.0688728894646964 0.00537818339238877
0.0867187500000028 -0.0752673959526862 0.00165966721639263
0.0875000000000057 -0.0824826371702892 -0.00287929851067357
0.0882812500000085 -0.0912762425299728 -0.00868479980809479
0.0890625000000114 -0.101563573947086 -0.0158558124377478
0.08984375 -0.111094644627294 -0.0232172786469521
0.0906250000000028 -0.116511200456292 -0.0285996909442148
0.0914062500000057 -0.115010076085543 -0.0299683680151375
0.0921875000000085 -0.104998125308968 -0.025835568320657
0.0929687500000114 -0.0872412337815226 -0.0160296869304849
0.09375 -0.064757723875945 -0.00209927059414978
0.0945312500000028 -0.0409705214582156 0.0135693941262984
0.0953125000000057 -0.0176447842681354 0.0293144164365834
0.0960937500000085 0.00505904507780991 0.0446995434419783
0.0968750000000114 0.027345689204024 0.0598268527114864
0.09765625 0.0494222232794796 0.0749413483413998
0.0984375000000028 0.0716408573029682 0.0905000556918617
0.0992187500000057 0.0924899626816843 0.106112673325355
0.100000000000009 0.106871611546318 0.118630816297615
0.100781250000011 0.111260068068254 0.1248177093368
0.1015625 0.10707623673377 0.124904631809088
0.102343750000003 0.0975896397502536 0.120977849540445
0.103125000000006 0.0858322395263854 0.114916418311842
0.103906250000009 0.0739366560242791 0.1079379692607
0.104687500000011 0.0630774360044625 0.100699394199243
0.10546875 0.0535141705261006 0.0934793879394074
0.106250000000003 0.0446797586545168 0.0861746520758406
0.107031250000006 0.0357372662310902 0.0785384957653535
0.107812500000009 0.0258229130987009 0.0702962394148937
0.108593750000011 0.0141919531660116 0.0611347477794303
0.109375 0.00146977050940158 0.0513263340311044
0.110156250000003 -0.00966012437930535 0.0424273317662668
0.110937500000006 -0.016172106770684 0.0364137533951413
0.111718750000009 -0.0157554623183437 0.034860136711503
0.112500000000011 -0.00761244980409011 0.0385641037454652
0.11328125 0.00662600460101283 0.0468129367418448
0.114062500000003 0.0237715390795724 0.0575574067115528
0.114843750000006 0.041254058326261 0.0687452142410179
0.115625000000009 0.0585304809963726 0.0796415023135378
0.116406250000011 0.0762103722526398 0.0906025996242636
0.1171875 0.0950014111845224 0.102259667914176
0.117968750000003 0.115629723588624 0.115269965112115
0.118750000000006 0.138400678084146 0.130198214702406
0.119531250000009 0.160289226593284 0.14569762400128
0.120312500000011 0.175716570827964 0.157908180289156
0.12109375 0.18271778418927 0.164644153142305
0.121875000000003 0.183322176989949 0.167034965275513
0.122656250000006 0.180240315016861 0.16704896987264
0.123437500000009 0.175659429834342 0.166215552455241
0.124218750000011 0.170842110585181 0.165422690281587
0.125 0.166320608188024 0.16508509321948
0.125781250000003 0.161900725636683 0.165155142130371
0.126562500000006 0.156952308982177 0.165170631909096
0.127343750000009 0.150852387530544 0.164545670066843
0.128125000000011 0.142991007756825 0.16265004902278
0.12890625 0.133181521238508 0.158982816387239
0.129687500000003 0.123099899798441 0.154054533733674
0.130468750000006 0.115909701866184 0.149544553351091
0.131250000000009 0.11443280095054 0.1472009949787
0.132031250000011 0.120486490642114 0.148381246878794
0.1328125 0.133830727355828 0.153474396654935
0.133593750000003 0.151857183139949 0.161334870722795
0.134375000000006 0.17112960637841 0.169919779875194
0.135156250000009 0.189594814101793 0.177808231867303
0.135937500000011 0.207115098652346 0.184996932735461
0.13671875 0.224251256563154 0.192208291938225
0.137500000000003 0.241608393365323 0.200210258747763
0.138281250000006 0.259954588714265 0.209762290019908
0.139062500000009 0.27880729883191 0.22103617460532
0.139843750000011 0.293769001112507 0.231529403769538
0.140625 0.30025347966747 0.237519749414645
0.141406250000003 0.298466300363153 0.238330016907802
0.142187500000006 0.291268893794311 0.235762972452418
0.142968750000009 0.281564362824181 0.231671379910885
0.143750000000011 0.27153327572613 0.227256812622724
0.14453125 0.262456368689313 0.223054163834779
0.145312500000003 0.254825365638432 0.219147790379357
0.146093750000006 0.248285939099453 0.215195496683839
0.146875000000009 0.242052327871418 0.210685440811871
0.147656250000011 0.235183911665626 0.205165397065989
0.1484375 0.226638947008629 0.198206393200492
0.149218750000003 0.216308353176429 0.189784776545989
0.150000000000006 0.206249188497154 0.18112240221244
0.150781250000009 0.199379272677402 0.174180758149274
0.151562500000011 0.198102922734861 0.170715665128536
0.15234375 0.203660275774924 0.171968050077212
0.153125000000003 0.215009674282728 0.177854503593537
0.153906250000006 0.229276134905004 0.186750014212875
0.154687500000009 0.243777438101614 0.196566523518805
0.155468750000011 0.257787967001973 0.206227858208448
0.15625 0.272007463046215 0.215823049341289
0.157031250000003 0.287260469874922 0.225810019831656
0.157812500000006 0.304198829098972 0.236675187551614
0.158593750000009 0.323271376802311 0.248980110187913
0.159375000000011 0.342288219008131 0.262005873908534
0.16015625 0.355582900047516 0.272242212489407
0.160937500000003 0.359867177125279 0.276777506445112
0.161718750000006 0.356512321704027 0.276188081882238
0.162500000000009 0.348300127505927 0.272458819942061
0.163281250000011 0.337838103284694 0.267248427940796
0.1640625 0.327039549737969 0.261565036531246
0.164843750000003 0.317133169598188 0.255907548017875
0.165625000000006 0.308608528321859 0.25041814495751
0.166406250000009 0.301313050260131 0.244938644152237
0.167187500000011 0.294948949116029 0.239294848948652
0.16796875 0.289204320676916 0.233360223468891
0.168750000000003 0.283963522673126 0.227058434208559
0.169531250000006 0.280645746165793 0.221087746320811
0.170312500000009 0.282442483110573 0.217441901238389
0.171093750000011 0.292440645781943 0.21842340421124
0.171875 0.312776609614413 0.225960812231162
0.172656250000003 0.343762437551501 0.241073406200209
0.173437500000006 0.383184597846442 0.263042321569993
0.174218750000009 0.427447374740189 0.28968487648315
0.175000000000011 0.473736241353051 0.318733526364449
0.17578125 0.52104520431313 0.348956711376234
0.176562500000003 0.569126792926814 0.379760130327764
0.177343750000006 0.617663762004114 0.410481905464848
0.178125000000009 0.666429447639768 0.440356280576238
0.178906250000011 0.714606041946646 0.468434466200063
0.1796875 0.757849673069467 0.491744348651419
0.180468750000003 0.790257363331336 0.505577140155898
0.181250000000006 0.810308339679883 0.507912198558004
0.182031250000009 0.820187989849751 0.500071762888155
0.182812500000011 0.822798453308628 0.484112888703995
0.18359375 0.820858990772826 0.461755280780792
0.184375000000003 0.81652263463631 0.434262012927042
0.185156250000006 0.811389375067139 0.402887366137704
0.185937500000009 0.806350954007237 0.368891197512273
0.186718750000011 0.801897392382642 0.333354828289249
0.1875 0.798498946190846 0.297442652414318
0.188281250000003 0.796570454713329 0.262400995693887
0.189062500000006 0.797003545520781 0.229574052889556
0.189843750000009 0.802482504362032 0.201284628254272
0.190625000000011 0.816593625684302 0.180492804852716
0.19140625 0.84203256779568 0.169315167621512
0.192187500000003 0.879902617778869 0.168572988445621
0.192968750000006 0.92845957009442 0.176970941679163
0.193750000000009 0.983015182720286 0.19055779564863
0.194531250000011 1.03777541633821 0.20377433562893
0.1953125 1.08817820785914 0.211158250260624
0.196093750000003 1.13127817737124 0.208154485098267
0.196875000000006 1.16463364415939 0.190873049541041
0.197656250000009 1.18591169659882 0.1560690167517
0.198437500000011 1.19314782368219 0.101734590765821
0.19921875 1.18325221444877 0.0265956859737068
0.200000000000003 1.15033270702736 -0.0718722105846247
0.200781250000006 1.09074046661368 -0.195039072286288
0.201562500000009 1.00723721845606 -0.33912440560297
0.202343750000011 0.906067083395889 -0.496532498622806
0.203125 0.794350161488416 -0.658172483321944
0.203906250000003 0.678977551480972 -0.814638407026385
0.204687500000006 0.565965791342836 -0.957237814974252
0.205468750000009 0.460005034605472 -1.07881536499451
0.206250000000011 0.364089005691468 -1.17487179439777
0.20703125 0.279657236969744 -1.24418197584591
0.207812500000003 0.206657037889846 -1.28880408279704
0.208593750000006 0.143602275699385 -1.31382762166668
0.209375000000009 0.0888400650215757 -1.32604348244388
0.210156250000011 0.0418206910330927 -1.33201244277179
0.2109375 0.00194336888204733 -1.33789592945546
0.211718750000003 -0.0321201218320907 -1.34952137670789
0.212500000000006 -0.0626650060588702 -1.37195069812872
0.213281250000009 -0.0937270879712531 -1.4098266224461
0.214062500000011 -0.130269336398322 -1.46687723141594
0.21484375 -0.176103500146611 -1.54419144052514
0.215625000000003 -0.232540917371919 -1.63882391913591
0.216406250000006 -0.299232216210132 -1.74421737765114
0.217187500000009 -0.375297972030457 -1.85186989314357
0.217968750000011 -0.459421569841567 -1.9531712902187
0.21875 -0.549943027601282 -2.04092149281527
0.219531250000003 -0.647532343392048 -2.11187429877435
0.220312500000006 -0.755096758235309 -2.16813748443351
0.221093750000009 -0.871742742550863 -2.21294498358269
0.221875000000011 -0.991964583801385 -2.24761798714123
0.22265625 -1.10932364811609 -2.27303683583881
0.223437500000003 -1.21806099934609 -2.29016672201863
0.224218750000006 -1.31395312673636 -2.29951501732552
0.225000000000009 -1.39450016302026 -2.30076856270984
0.225781250000011 -1.45902317474628 -2.29258246697055
0.2265625 -1.50862927100881 -2.27256996306145
0.227343750000003 -1.54593206944582 -2.23770868957631
0.228125000000006 -1.5750949586975 -2.18521061115613
0.228906250000009 -1.60149389526582 -2.11357585048713
0.229687500000011 -1.62976152646835 -2.02258554061271
0.23046875 -1.66311770818079 -1.91324714853315
0.231250000000003 -1.70456877180063 -1.7890079563942
0.232031250000006 -1.75710574116509 -1.65577022571765
0.232812500000009 -1.82474331841525 -1.52142178383709
0.233593750000011 -1.91328666377849 -1.39564645563119
0.234375 -2.02886518582704 -1.28897579174161
0.235156250000003 -2.17570185096483 -1.21135097635817
0.235937500000006 -2.35530439760777 -1.17075841609159
0.236718750000009 -2.56747240213787 -1.17263404188616
0.237500000000011 -2.81136435645308 -1.21961446557883
0.23828125 -3.08554331491041 -1.311420748241
0.239062500000003 -3.38901914841274 -1.44598290647018
0.239843750000006 -3.72412036587007 -1.62299690877621
0.240625000000009 -4.09325176986646 -1.84438402019598
0.241406250000011 -4.49372793108574 -2.11050204721396
0.2421875 -4.9198609602478 -2.42018956444035
0.242968750000003 -5.3656698236537 -2.77292642182213
0.243750000000006 -5.82565665217136 -3.1689107439382
0.244531250000009 -6.29464334635612 -3.60778319617566
0.245312500000011 -6.76702068461759 -4.08670168634045
0.24609375 -7.23677362978286 -4.59860672140359
0.246875000000003 -7.69702069364911 -5.13042013717657
0.247656250000006 -8.139900452866 -5.66186101408325
0.248437500000009 -8.55704424764532 -6.16538077896758
0.249218750000011 -8.9389393828708 -6.6075382102421
0.25 -9.27434113169718 -6.95294889311813
0.250781250000003 -9.55221696147564 -7.17119337744138
0.251562500000006 -9.76425143238163 -7.24375650159306
0.252343750000009 -9.90688943023325 -7.16779401969945
0.253125000000011 -9.98287871885159 -6.95683171501003
0.25390625 -10.0007229713501 -6.63828213024175
0.254687500000003 -9.97192684935325 -6.2475874013895
0.255468750000006 -9.90757971669195 -5.82060980287157
0.256250000000009 -9.8176005616515 -5.38764929530402
0.257031250000011 -9.71093454267546 -4.97012607444345
0.2578125 -9.59482287366987 -4.57926215817878
0.258593750000003 -9.4740898033475 -4.21678511944379
0.259375000000006 -9.35236847248494 -3.87842589358888
0.260156250000009 -9.23334877674328 -3.55887960990113
0.260937500000011 -9.11618136391124 -3.25223793716766
0.26171875 -8.99328689447295 -2.95087599306175
0.262500000000003 -8.85474838382607 -2.64786732980305
0.263281250000006 -8.6913492894324 -2.33864083782078
0.264062500000009 -8.49611283591271 -2.0208181265977
0.264843750000011 -8.26542170075206 -1.69377712505505
0.265625 -7.99919286176321 -1.35840263105214
0.266406250000003 -7.70052392437399 -1.01711590647495
0.267187500000006 -7.3746048328132 -0.673730622191604
0.267968750000009 -7.02725106116624 -0.333217313311301
0.268750000000011 -6.66388658710616 -0.00125037137281502
0.26953125 -6.28768126221821 0.317169991886884
0.270312500000003 -5.89851822210275 0.619163614734315
0.271093750000006 -5.49475778183702 0.903618055446237
0.271875000000009 -5.0740880172689 1.17057564257065
0.272656250000011 -4.63459553302288 1.42045842519009
0.2734375 -4.1763452362303 1.65284389937473
0.274218750000003 -3.70073067356179 1.86664804151294
0.275000000000006 -3.20890023436726 2.06137051551075
0.275781250000009 -2.70108280878453 2.23803946431008
0.276562500000011 -2.17754371174611 2.398827237929
0.27734375 -1.63996322667931 2.54611058283388
0.278125000000003 -1.09136287094362 2.68225325264186
0.278906250000006 -0.535965620207598 2.80970713136752
0.279687500000009 0.0184549227265338 2.92913444410412
0.280468750000011 0.562890460696778 3.0389864782982
0.28125 1.09355237183613 3.13973847317366
0.282031250000003 1.61178517409306 3.23511096152884
0.282812500000006 2.12115944229497 3.32969824020749
0.283593750000009 2.625695928639 3.42793653157505
0.284375000000011 3.12905240968296 3.53374472657857
